# Raman Linecut Export
# Pixel size: 15 nm
# Direction: horizontal
# Start offset from align: (5, 0)
# Length: 150 px
# Width averaged: 15 px
# Maps included: 15
# Alignment points:
#   860 cm⁻¹: align=(14,37), abs_start=(19,37)
#   870 cm⁻¹: align=(14,34), abs_start=(19,34)
#   880 cm⁻¹: align=(14,34), abs_start=(19,34)
#   890 cm⁻¹: align=(11,29), abs_start=(16,29)
#   900 cm⁻¹: align=(9,28), abs_start=(14,28)
#   911 cm⁻¹: align=(17,39), abs_start=(22,39)
#   920 cm⁻¹: align=(5,40), abs_start=(10,40)
#   930 cm⁻¹: align=(4,38), abs_start=(9,38)
#   941 cm⁻¹: align=(3,39), abs_start=(8,39)
#   950 cm⁻¹: align=(3,39), abs_start=(8,39)
#   960 cm⁻¹: align=(2,31), abs_start=(7,31)
#   970 cm⁻¹: align=(7,24), abs_start=(12,24)
#   980 cm⁻¹: align=(8,38), abs_start=(13,38)
#   991 cm⁻¹: align=(11,38), abs_start=(16,38)
#   1000 cm⁻¹: align=(15,42), abs_start=(20,42)

pixel_index,860_cm⁻¹,870_cm⁻¹,880_cm⁻¹,890_cm⁻¹,900_cm⁻¹,911_cm⁻¹,920_cm⁻¹,930_cm⁻¹,941_cm⁻¹,950_cm⁻¹,960_cm⁻¹,970_cm⁻¹,980_cm⁻¹,991_cm⁻¹,1000_cm⁻¹
0,0.744457,2.722820,3.420920,0.973679,3.039027,1.201487,3.492367,3.215747,4.354207,3.431853,1.992460,2.484227,5.787720,5.069353,5.718433
1,0.723325,2.705133,3.431667,0.965444,2.975773,1.196013,3.500973,3.216047,4.330660,3.400047,1.982000,2.478767,5.764133,5.086873,5.806640
2,0.705039,2.735487,3.466167,0.971253,3.008627,1.214440,3.509340,3.244573,4.393200,3.411307,1.982320,2.506893,5.843400,5.129560,5.897680
3,0.735637,2.724673,3.421307,0.981043,3.031873,1.195987,3.494460,3.204673,4.333420,3.433827,1.986067,2.503133,5.794253,5.082880,5.833773
4,0.722967,2.673553,3.388007,0.972025,2.997033,1.186000,3.462107,3.222447,4.301407,3.406053,1.975600,2.465220,5.758267,5.059733,5.798420
5,0.720423,2.666627,3.378513,0.957083,2.960493,1.185300,3.447320,3.212027,4.297367,3.368353,1.958773,2.479000,5.754613,5.063707,5.816300
6,0.723754,2.642580,3.322060,0.941823,2.951813,1.174787,3.423400,3.237167,4.313800,3.372973,1.953687,2.442800,5.761807,5.033560,5.821047
7,0.698656,2.600613,3.267093,0.950877,2.932960,1.172520,3.340120,3.235887,4.278280,3.396573,1.927733,2.487393,5.741493,5.124600,5.819107
8,0.696164,2.552453,3.151720,0.913825,2.879820,1.148860,3.286293,3.103853,4.228853,3.355440,1.958100,2.452733,5.723527,5.078573,5.760600
9,0.674913,2.417387,2.913407,0.869608,2.781013,1.116327,3.099953,3.017513,4.071387,3.292487,1.931327,2.379113,5.643847,4.975573,5.680260
10,0.645417,2.182133,2.543547,0.802521,2.576200,1.068373,2.780867,2.772067,3.831747,3.152587,1.860833,2.284507,5.464713,4.872920,5.537720
11,0.595467,1.919960,2.221020,0.688857,2.252320,0.958718,2.391953,2.420713,3.392687,2.922347,1.755413,2.062053,5.097700,4.446720,5.003027
12,0.553409,2.088400,2.614673,0.610580,1.988767,0.856763,2.330273,2.244120,2.913587,2.566133,1.586167,1.735213,4.214160,3.618387,4.122773
13,0.701051,2.557440,2.852133,0.727638,2.117667,0.921071,2.236173,2.191580,2.734287,2.340693,1.360640,1.511640,3.340887,3.178793,3.752980
14,0.947259,2.271147,2.107293,0.702550,2.277140,1.037855,1.676900,2.162880,2.225840,2.209747,1.213489,1.681153,3.071413,3.349447,4.159840
15,0.921615,2.540473,3.325747,0.744743,2.303720,0.969832,3.401807,3.306707,3.178147,2.300060,1.388125,2.295793,4.635480,4.572433,4.913287
16,0.849052,3.755947,5.004167,1.030935,3.225547,1.363467,5.075133,4.895500,4.977220,3.456240,2.036193,3.136300,6.334147,5.229453,4.987833
17,0.948332,5.514287,7.144187,1.592553,4.774053,1.987587,6.681053,6.104620,6.394047,4.744140,2.674427,3.377840,6.793600,4.968207,4.439673
18,1.294527,7.362207,9.322107,2.152047,6.338420,2.603867,7.378720,6.358353,6.941520,5.354120,2.882720,3.093307,6.243180,4.309440,3.830020
19,1.881993,8.530320,10.213800,2.610380,7.188880,2.884507,7.084087,5.840933,6.511827,5.168533,2.686660,2.655600,5.203453,3.693513,3.599127
20,2.542500,8.780300,10.099020,2.741960,7.096333,2.775873,6.303433,5.062513,5.664580,4.528927,2.345220,2.280240,4.443227,3.511173,3.716047
21,3.030693,8.483960,9.349927,2.590253,6.510587,2.489880,5.511053,4.347247,4.833333,3.887353,2.031993,2.062120,4.149640,3.692007,3.897653
22,3.273367,7.837940,8.370107,2.330167,5.769193,2.142533,4.832413,3.778527,4.281800,3.475553,1.843620,2.080087,4.343373,3.904553,3.938833
23,3.270240,7.033887,7.326867,2.058680,4.980020,1.875127,4.311473,3.524280,4.028793,3.252847,1.793767,2.219273,4.669247,3.976027,3.869813
24,3.050533,6.248467,6.428313,1.783267,4.400227,1.633467,4.114253,3.537400,4.059180,3.313320,1.879200,2.360633,4.897473,3.890080,3.847460
25,2.740293,5.488080,5.725093,1.564413,3.921320,1.533193,4.152113,3.750573,4.289300,3.508040,1.999013,2.417567,4.866627,3.810187,3.878887
26,2.473013,4.901520,5.231473,1.446033,3.724967,1.538947,4.395613,4.032893,4.582273,3.703040,2.057007,2.374347,4.710360,3.842080,3.930667
27,2.231760,4.461760,5.028060,1.379340,3.755053,1.630227,4.698513,4.248953,4.771400,3.789027,2.070013,2.326853,4.611387,3.907673,3.965693
28,2.005227,4.303780,5.103653,1.387140,3.976387,1.732953,4.915840,4.325900,4.778107,3.760987,2.022807,2.302760,4.684327,4.004027,3.961633
29,1.843347,4.316713,5.414920,1.491667,4.283360,1.853987,4.992640,4.241447,4.708553,3.706053,1.993173,2.303453,4.823173,4.013407,3.902500
30,1.744860,4.523380,5.835887,1.594107,4.533613,1.901473,4.949327,4.125467,4.542720,3.622613,1.980253,2.349293,4.895267,3.944453,3.862527
31,1.716973,4.827467,6.211160,1.709987,4.677740,1.911627,4.802067,3.992860,4.475727,3.596060,1.988867,2.374107,4.889813,3.864780,3.872647
32,1.715493,5.106913,6.470500,1.745620,4.687887,1.859873,4.654473,3.963833,4.448833,3.617027,2.016373,2.389607,4.805533,3.840233,3.889627
33,1.785813,5.356787,6.517780,1.762707,4.596133,1.807907,4.603207,4.010180,4.564073,3.689953,2.052480,2.376907,4.714280,3.853980,3.894693
34,1.882933,5.460113,6.476333,1.732347,4.461933,1.765667,4.613213,4.093733,4.681840,3.756640,2.068947,2.351133,4.674060,3.884393,3.896633
35,1.952607,5.471513,6.292893,1.688873,4.358180,1.757460,4.723700,4.216140,4.791907,3.803613,2.060813,2.322293,4.706760,3.898947,3.892840
36,2.044387,5.394060,6.098447,1.651487,4.283293,1.778740,4.824160,4.287113,4.795020,3.787600,2.035333,2.315627,4.746853,3.895587,3.890867
37,2.062840,5.246060,5.952213,1.599147,4.282647,1.822313,4.908840,4.302447,4.726667,3.724927,2.006900,2.324447,4.791100,3.896480,3.906240
38,2.062773,5.117567,5.857213,1.593700,4.365313,1.863867,5.001893,4.284353,4.665493,3.674487,1.992647,2.334900,4.779400,3.907127,3.911693
39,2.062547,5.036147,5.870460,1.601880,4.467000,1.909753,5.001367,4.198127,4.601533,3.680833,2.006687,2.362113,4.794633,3.929900,3.907187
40,2.042160,4.959940,5.922407,1.647533,4.597133,1.926127,4.862433,4.108327,4.537287,3.650800,2.014607,2.343333,4.767813,3.923907,3.889260
41,2.001753,4.962460,6.084893,1.709313,4.677687,1.907680,4.732193,4.054647,4.521187,3.642480,2.021813,2.335407,4.712387,3.895460,3.857940
42,1.956480,5.033107,6.265193,1.738773,4.691387,1.886993,4.738527,4.057800,4.573273,3.642273,2.013173,2.321433,4.728560,3.885287,3.883900
43,1.942240,5.127840,6.412920,1.767813,4.690740,1.844913,4.686540,4.092047,4.640993,3.685320,2.015433,2.347633,4.792660,3.914240,3.888920
44,1.936413,5.262580,6.502933,1.774393,4.628433,1.817600,4.689867,4.107473,4.691880,3.731080,2.020147,2.341933,4.805147,3.919340,3.910840
45,1.937620,5.380387,6.537307,1.765320,4.537193,1.796820,4.742227,4.146353,4.676253,3.710333,2.014740,2.359547,4.806820,3.911047,3.920620
46,1.962273,5.450127,6.457493,1.733287,4.453687,1.797760,4.777713,4.177027,4.667367,3.702960,2.036567,2.367940,4.793660,3.906487,3.908527
47,1.990700,5.469340,6.363553,1.691207,4.392920,1.811140,4.834647,4.152460,4.643687,3.705653,2.026727,2.365227,4.776167,3.920900,3.899187
48,2.033113,5.446427,6.232753,1.670580,4.356053,1.818627,4.800180,4.147920,4.610840,3.685200,2.025173,2.349827,4.752040,3.895453,3.896707
49,2.062780,5.378393,6.095920,1.644353,4.385073,1.833787,4.829767,4.117213,4.613940,3.681233,2.024473,2.346287,4.753793,3.899807,3.902873
50,2.084860,5.291593,6.019387,1.617380,4.386713,1.829353,4.799207,4.093960,4.629500,3.685807,2.023860,2.348413,4.746147,3.902220,3.891367
51,2.097100,5.201833,5.980773,1.631647,4.427993,1.830847,4.749313,4.100533,4.607307,3.694260,2.009167,2.325180,4.763987,3.896153,3.900293
52,2.099487,5.142860,6.002373,1.646973,4.464560,1.831533,4.773067,4.116900,4.666027,3.693107,2.027987,2.345120,4.765107,3.902733,3.911867
53,2.084280,5.085393,6.044247,1.664327,4.499647,1.819053,4.743853,4.141047,4.662040,3.715287,2.015520,2.342880,4.765973,3.909180,3.893500
54,2.067440,5.083533,6.100140,1.674740,4.482707,1.816167,4.760293,4.141813,4.680280,3.697867,2.014813,2.345980,4.751013,3.909533,3.898873
55,2.056560,5.091273,6.161907,1.694920,4.486093,1.803653,4.806540,4.162727,4.652493,3.688500,2.004340,2.341993,4.759807,3.899560,3.901020
56,2.024720,5.126527,6.215807,1.689913,4.473233,1.834440,4.842393,4.165560,4.627240,3.690280,2.018013,2.363020,4.778747,3.905347,3.897740
57,1.990747,5.166667,6.238380,1.698173,4.460173,1.842873,4.830607,4.159860,4.638907,3.700127,2.017480,2.349113,4.791747,3.916893,3.919960
58,2.004760,5.213460,6.241953,1.677320,4.470073,1.847647,4.864687,4.158513,4.638467,3.702700,2.013593,2.350620,4.801200,3.904153,3.930133
59,1.981533,5.250427,6.223587,1.677587,4.479960,1.856427,4.904387,4.196367,4.664867,3.700853,2.018720,2.365873,4.822180,3.918920,3.927000
60,2.002640,5.289953,6.222253,1.669213,4.504393,1.876340,4.896147,4.173487,4.684260,3.736940,2.034927,2.371087,4.805647,3.937607,3.925040
61,2.002013,5.295327,6.171353,1.670567,4.539833,1.882947,4.861920,4.195880,4.709573,3.746860,2.048353,2.374807,4.832247,3.934353,3.920240
62,2.021267,5.268533,6.148013,1.677907,4.548513,1.865053,4.857880,4.155707,4.705813,3.747947,2.043413,2.366727,4.810253,3.923700,3.903193
63,2.017540,5.229773,6.123660,1.687000,4.536293,1.843120,4.786053,4.141227,4.658193,3.731593,2.032693,2.337193,4.782560,3.903080,3.918267
64,2.031313,5.194640,6.126100,1.680813,4.544287,1.831900,4.796613,4.148707,4.615867,3.682227,2.003427,2.348613,4.762447,3.943913,3.930847
65,2.029327,5.172480,6.178987,1.685153,4.535260,1.843107,4.794127,4.142633,4.596740,3.705033,2.012287,2.364800,4.805307,3.952860,3.928780
66,2.030340,5.174900,6.225820,1.706873,4.523073,1.831487,4.798180,4.121160,4.651120,3.704013,2.019920,2.340513,4.794527,3.928287,3.920767
67,2.024193,5.181453,6.247047,1.702393,4.509513,1.821873,4.836753,4.135787,4.615587,3.692600,2.025227,2.354967,4.792520,3.920347,3.892800
68,2.034953,5.194200,6.289620,1.709640,4.494213,1.835900,4.858220,4.154087,4.658320,3.703567,2.017800,2.346233,4.763560,3.899487,3.887793
69,2.020787,5.211393,6.291007,1.703793,4.481387,1.854673,4.820767,4.157200,4.663773,3.720813,2.025707,2.374307,4.780780,3.935013,3.926380
70,2.006860,5.218260,6.268433,1.706060,4.474113,1.856093,4.806220,4.173500,4.684920,3.724960,2.022800,2.354807,4.769160,3.934533,3.917387
71,2.019193,5.248280,6.256913,1.688047,4.492860,1.846353,4.830613,4.152520,4.691147,3.689120,2.024967,2.376927,4.799053,3.935707,3.916487
72,2.001540,5.283480,6.243947,1.678720,4.489413,1.851847,4.847813,4.174967,4.679513,3.714160,2.024753,2.372127,4.816380,3.938633,3.921373
73,2.010800,5.285040,6.194873,1.679313,4.512213,1.858987,4.832680,4.186620,4.694987,3.728740,2.034700,2.353840,4.803540,3.913613,3.904913
74,2.016100,5.282627,6.195653,1.682393,4.517960,1.857813,4.845573,4.186433,4.684140,3.707080,2.041787,2.339307,4.794627,3.920013,3.906480
75,2.027500,5.270593,6.165207,1.681500,4.503193,1.830293,4.815560,4.164660,4.653993,3.729720,2.033400,2.344887,4.787293,3.940747,3.905840
76,2.035527,5.237033,6.164433,1.690473,4.499027,1.838807,4.832760,4.140833,4.620220,3.707073,2.032920,2.356307,4.786340,3.919700,3.918893
77,2.024980,5.234527,6.188760,1.691787,4.502020,1.824640,4.827053,4.142127,4.651347,3.708753,2.028140,2.365373,4.785427,3.915060,3.918973
78,2.023067,5.216333,6.180827,1.691987,4.476647,1.859400,4.827613,4.159547,4.664127,3.709860,2.042233,2.361607,4.807940,3.925180,3.921253
79,2.052260,5.217493,6.183140,1.687920,4.478960,1.838407,4.818760,4.144660,4.643740,3.699480,2.016587,2.363933,4.785040,3.925300,3.913500
80,2.036507,5.220480,6.205507,1.678000,4.473100,1.840633,4.880480,4.177053,4.639233,3.706287,2.021833,2.371407,4.812080,3.946053,3.932053
81,2.031047,5.205987,6.231053,1.704127,4.488473,1.851673,4.864060,4.195333,4.694793,3.728927,2.032520,2.368820,4.832627,3.958320,3.930607
82,2.040153,5.206507,6.192587,1.685640,4.506727,1.836827,4.840313,4.181220,4.685320,3.749280,2.030080,2.365933,4.810140,3.964627,3.922967
83,2.040633,5.201713,6.205533,1.691187,4.500887,1.845393,4.840380,4.154453,4.669667,3.717713,2.021687,2.355893,4.806327,3.917847,3.927380
84,2.030560,5.233007,6.175467,1.683173,4.523433,1.845220,4.837933,4.161920,4.676287,3.718700,2.033407,2.363927,4.800540,3.928853,3.905900
85,2.027447,5.242620,6.175887,1.675733,4.517860,1.836873,4.843787,4.186693,4.675813,3.717060,2.034353,2.364180,4.815587,3.930540,3.909167
86,2.029927,5.240460,6.178420,1.677267,4.516293,1.852307,4.823747,4.142160,4.660627,3.717973,2.033427,2.344673,4.789100,3.923987,3.914313
87,2.033127,5.239247,6.162793,1.686560,4.520613,1.849353,4.847840,4.157893,4.660720,3.690387,2.026253,2.345740,4.774600,3.929107,3.931733
88,2.016400,5.227760,6.176827,1.690553,4.494813,1.836027,4.845653,4.167220,4.688440,3.726960,2.039427,2.364000,4.813573,3.952107,3.935367
89,2.031113,5.221260,6.164860,1.688120,4.496593,1.836280,4.811253,4.159380,4.692820,3.714527,2.041940,2.353473,4.809380,3.933207,3.921693
90,2.027253,5.240773,6.208660,1.690520,4.493767,1.844400,4.816140,4.175347,4.668653,3.710893,2.030513,2.371620,4.785127,3.938513,3.914920
91,2.031013,5.219047,6.236920,1.694000,4.503700,1.839187,4.830113,4.171447,4.644960,3.724440,2.030573,2.365387,4.833460,3.948387,3.943100
92,2.031747,5.228593,6.258873,1.693880,4.499073,1.838893,4.816820,4.171933,4.676460,3.721633,2.032573,2.366447,4.829613,3.945713,3.956907
93,2.036200,5.244987,6.265487,1.707107,4.504160,1.845467,4.850173,4.178907,4.686700,3.739633,2.032553,2.372307,4.822773,3.944407,3.947267
94,2.040540,5.264427,6.257673,1.702200,4.508273,1.838973,4.825247,4.212107,4.702013,3.735167,2.042980,2.373547,4.812760,3.944447,3.912240
95,2.037787,5.262767,6.260267,1.703080,4.525907,1.846993,4.833213,4.204073,4.684913,3.718840,2.028327,2.360173,4.805927,3.943533,3.934180
96,2.038887,5.255740,6.294513,1.687653,4.525547,1.861287,4.834607,4.196053,4.694287,3.720973,2.038593,2.369760,4.810660,3.935887,3.925507
97,2.039960,5.278107,6.263987,1.704913,4.536567,1.861233,4.843320,4.192473,4.690293,3.728253,2.034567,2.371873,4.807073,3.925547,3.908907
98,2.034793,5.277900,6.258687,1.692727,4.520613,1.842040,4.837253,4.194400,4.690813,3.743120,2.033287,2.351700,4.806720,3.934880,3.935180
99,2.024847,5.267907,6.239507,1.699213,4.511200,1.850707,4.829587,4.155653,4.666320,3.724453,2.035360,2.377273,4.808140,3.947653,3.938167
100,2.038500,5.270433,6.230133,1.674520,4.514667,1.839367,4.845580,4.195120,4.667133,3.716920,2.031880,2.369667,4.812773,3.967120,3.934040
101,2.034267,5.266580,6.255107,1.689713,4.496800,1.854087,4.850547,4.168187,4.694253,3.735653,2.031347,2.371360,4.835747,3.944087,3.942660
102,2.019367,5.277307,6.249660,1.703673,4.502567,1.866533,4.871640,4.183827,4.701147,3.746087,2.053187,2.369747,4.823200,3.965147,3.956133
103,2.038080,5.272467,6.241973,1.696767,4.535227,1.866960,4.862800,4.184307,4.718453,3.742267,2.045113,2.382413,4.815047,3.953013,3.928653
104,2.034180,5.250900,6.229900,1.694020,4.524127,1.863880,4.855433,4.170213,4.728733,3.746407,2.042833,2.371673,4.821127,3.951033,3.936013
105,2.032973,5.244847,6.222100,1.685800,4.517373,1.850133,4.850207,4.176280,4.688747,3.737493,2.047013,2.355700,4.818453,3.937373,3.925360
106,2.036527,5.233713,6.221840,1.688607,4.525813,1.841660,4.844927,4.158600,4.662973,3.722693,2.025080,2.358200,4.797900,3.925947,3.944087
107,2.036013,5.230693,6.223920,1.698560,4.517787,1.841240,4.841940,4.173247,4.640140,3.713653,2.027040,2.354007,4.790833,3.953380,3.911060
108,2.034980,5.238653,6.210353,1.690273,4.510820,1.847067,4.842500,4.174300,4.670113,3.735987,2.043107,2.377020,4.788747,3.933800,3.930200
109,2.023840,5.249040,6.215920,1.695867,4.514380,1.845033,4.838093,4.177847,4.680273,3.703773,2.028167,2.355100,4.803133,3.932060,3.912407
110,2.036347,5.215040,6.190633,1.690880,4.534447,1.826447,4.842487,4.174467,4.650993,3.714307,2.018920,2.366633,4.789973,3.926593,3.933453
111,2.028407,5.238953,6.209700,1.682453,4.525813,1.846193,4.843833,4.167473,4.669300,3.718633,2.023960,2.367573,4.796133,3.936007,3.943260
112,2.035313,5.240113,6.200260,1.684007,4.519573,1.861033,4.850273,4.182787,4.679013,3.743060,2.029733,2.382327,4.835373,3.954680,3.922713
113,2.047693,5.252473,6.210680,1.688720,4.522940,1.837613,4.853760,4.202147,4.687640,3.750540,2.042567,2.357353,4.830660,3.939167,3.934507
114,2.040900,5.256713,6.233127,1.693000,4.530793,1.841760,4.868787,4.188207,4.671567,3.735173,2.035920,2.375913,4.796647,3.937680,3.931320
115,2.027153,5.254613,6.222520,1.695927,4.497980,1.840680,4.853927,4.195673,4.691180,3.732013,2.036533,2.363400,4.796700,3.928273,3.926413
116,2.029667,5.233420,6.257760,1.694900,4.524700,1.848400,4.845233,4.169680,4.671767,3.722347,2.031627,2.364780,4.800987,3.943987,3.934647
117,2.027220,5.251407,6.273740,1.708013,4.541140,1.837973,4.862413,4.208100,4.693453,3.711893,2.028887,2.370153,4.823320,3.960100,3.920867
118,2.041140,5.258047,6.257887,1.704920,4.530180,1.847667,4.841053,4.179607,4.678327,3.749720,2.036480,2.368580,4.809453,3.964027,3.945853
119,2.036273,5.257833,6.245060,1.717373,4.525147,1.832433,4.864147,4.193427,4.674500,3.726767,2.030393,2.375447,4.824653,3.959460,3.947233
120,2.027267,5.244913,6.246193,1.701607,4.536853,1.868980,4.853653,4.167987,4.726387,3.752653,2.042300,2.373233,4.825813,3.937633,3.928693
121,2.048787,5.250207,6.250280,1.685987,4.523947,1.857847,4.824000,4.196340,4.679907,3.738293,2.034607,2.354460,4.801673,3.919380,3.923787
122,2.031633,5.277253,6.260267,1.684880,4.534367,1.855307,4.857300,4.183127,4.682360,3.724320,2.038940,2.356720,4.812160,3.949013,3.926840
123,2.040540,5.278927,6.257867,1.703027,4.525753,1.857367,4.856920,4.182487,4.715953,3.735967,2.035953,2.375733,4.814187,3.934040,3.934507
124,2.027160,5.272767,6.264320,1.706820,4.519020,1.856500,4.849387,4.178500,4.692600,3.748640,2.048027,2.377273,4.834080,3.966313,3.967700
125,2.031100,5.277627,6.269427,1.703460,4.543733,1.843500,4.861673,4.200500,4.704653,3.730673,2.051920,2.374933,4.861553,3.962667,3.970260
126,2.054533,5.290047,6.262153,1.704953,4.520267,1.858773,4.852627,4.166900,4.716753,3.742387,2.044213,2.385087,4.837453,3.968900,3.949673
127,2.036187,5.261187,6.248400,1.704313,4.525340,1.855760,4.838460,4.183527,4.691687,3.718720,2.043493,2.368680,4.817040,3.943407,3.923800
128,2.045867,5.256507,6.220187,1.702247,4.535333,1.860193,4.825020,4.178427,4.696940,3.699567,2.024527,2.351067,4.783573,3.915127,3.920753
129,2.028120,5.242680,6.245440,1.694947,4.527240,1.848407,4.849753,4.191720,4.680967,3.702140,2.020827,2.344647,4.776660,3.927580,3.929533
130,2.029687,5.262653,6.235913,1.703207,4.560600,1.862860,4.881233,4.201767,4.700193,3.734233,2.040680,2.375767,4.819953,3.948867,3.935640
131,2.031107,5.245727,6.239540,1.700500,4.540180,1.854673,4.894167,4.210720,4.737133,3.766080,2.038027,2.382733,4.839947,3.949587,3.941973
132,2.035300,5.261900,6.224593,1.699407,4.546600,1.866453,4.889800,4.207707,4.724520,3.758973,2.042647,2.361207,4.826520,3.959093,3.920040
133,2.042347,5.252880,6.228513,1.698753,4.553340,1.860913,4.876987,4.193593,4.704313,3.737953,2.032613,2.367333,4.815467,3.933933,3.926233
134,2.043560,5.235200,6.237847,1.690820,4.526627,1.855140,4.858540,4.186387,4.681393,3.755847,2.036867,2.377373,4.816727,3.948093,3.940073
135,2.050353,5.258427,6.223113,1.698127,4.528020,1.851973,4.869493,4.194353,4.700640,3.729513,2.037573,2.374193,4.835547,3.955667,3.954887
136,2.041687,5.254713,6.245667,1.707180,4.524707,1.861727,4.879793,4.199773,4.724647,3.747720,2.047160,2.359360,4.814687,3.943433,3.922607
137,2.045560,5.247040,6.232260,1.689660,4.514927,1.856580,4.887127,4.198993,4.742227,3.751587,2.034793,2.364060,4.814253,3.946593,3.930067
138,2.043727,5.247353,6.215913,1.696880,4.523653,1.856967,4.865287,4.176880,4.714393,3.771067,2.036220,2.373760,4.807040,3.945307,3.941087
139,2.038087,5.245400,6.209220,1.711300,4.509140,1.846853,4.855407,4.184773,4.689627,3.740427,2.031633,2.369053,4.804653,3.964273,3.955373
140,2.041347,5.223540,6.189933,1.700853,4.522260,1.846207,4.856227,4.196040,4.718920,3.746747,2.046653,2.358500,4.824000,3.950460,3.955140
141,2.040087,5.225767,6.204380,1.687100,4.517980,1.845020,4.827040,4.158447,4.668520,3.732287,2.056000,2.387593,4.840107,3.943467,3.941693
142,2.044347,5.232300,6.210733,1.687600,4.505987,1.841887,4.828987,4.144353,4.658493,3.714980,2.036267,2.386167,4.806840,3.951380,3.936660
143,2.037460,5.254533,6.233480,1.689100,4.497487,1.849753,4.867900,4.167280,4.680607,3.724400,2.030520,2.370387,4.810193,3.942527,3.942427
144,2.046633,5.277780,6.255453,1.683940,4.520093,1.850187,4.868727,4.198787,4.688807,3.743593,2.029907,2.366033,4.841253,3.954147,3.941167
145,2.038007,5.319007,6.304893,1.694547,4.524973,1.851580,4.864980,4.192020,4.688313,3.739520,2.035840,2.370947,4.813800,3.943873,3.916660
146,2.060320,5.362573,6.350853,1.703787,4.537680,1.857053,4.888153,4.230727,4.740940,3.744580,2.045807,2.369873,4.820720,3.939540,3.933560
147,2.066173,5.373693,6.363527,1.714340,4.566460,1.858133,4.886033,4.232260,4.725247,3.758413,2.049187,2.353073,4.802433,3.939533,3.923980
148,2.100087,5.416273,6.401827,1.717353,4.566613,1.867820,4.904313,4.221693,4.757200,3.772653,2.047960,2.368040,4.798260,3.942013,3.943660
149,2.102173,5.433247,6.450067,1.732880,4.598487,1.882360,4.920013,4.210967,4.744773,3.765813,2.070240,2.381800,4.828033,3.961807,3.944460