# Raman Linecut Export
# Pixel size: 15 nm
# Direction: horizontal
# Start offset from align: (5, 0)
# Length: 120 px
# Width averaged: 10 px
# Maps included: 15
# Alignment points:
#   860 cm⁻¹: align=(21,40), abs_start=(26,40)
#   870 cm⁻¹: align=(20,39), abs_start=(25,39)
#   880 cm⁻¹: align=(18,38), abs_start=(23,38)
#   890 cm⁻¹: align=(18,37), abs_start=(23,37)
#   900 cm⁻¹: align=(10,39), abs_start=(15,39)
#   911 cm⁻¹: align=(26,43), abs_start=(31,43)
#   920 cm⁻¹: align=(13,46), abs_start=(18,46)
#   930 cm⁻¹: align=(11,46), abs_start=(16,46)
#   941 cm⁻¹: align=(11,46), abs_start=(16,46)
#   950 cm⁻¹: align=(13,47), abs_start=(18,47)
#   960 cm⁻¹: align=(10,36), abs_start=(15,36)
#   970 cm⁻¹: align=(13,30), abs_start=(18,30)
#   980 cm⁻¹: align=(14,43), abs_start=(19,43)
#   991 cm⁻¹: align=(21,43), abs_start=(26,43)
#   1000 cm⁻¹: align=(23,44), abs_start=(28,44)

pixel_index,860_cm⁻¹,870_cm⁻¹,880_cm⁻¹,890_cm⁻¹,900_cm⁻¹,911_cm⁻¹,920_cm⁻¹,930_cm⁻¹,941_cm⁻¹,950_cm⁻¹,960_cm⁻¹,970_cm⁻¹,980_cm⁻¹,991_cm⁻¹,1000_cm⁻¹
0,0.699032,2.697520,3.406760,0.971423,3.225250,1.205910,3.476470,3.378640,4.413260,3.480570,2.055150,2.488530,5.838990,5.255110,5.953420
1,0.718130,2.675330,3.378090,0.964769,3.196620,1.209890,3.435150,3.373590,4.404810,3.443010,2.035470,2.488180,5.798260,5.199860,5.896740
2,0.696404,2.641280,3.373920,0.937847,3.164390,1.180950,3.413090,3.335390,4.352310,3.435300,2.044240,2.472700,5.767890,5.172230,5.869660
3,0.677784,2.610830,3.306960,0.930991,3.117160,1.181880,3.393120,3.299390,4.312930,3.392740,2.024590,2.449980,5.728020,5.131840,5.828100
4,0.652969,2.535650,3.264880,0.921357,3.055790,1.157990,3.327060,3.262100,4.301060,3.366080,1.997270,2.427990,5.690860,5.072250,5.776730
5,0.613558,2.413950,3.178530,0.864685,2.954300,1.126300,3.254470,3.238230,4.231870,3.297830,1.959960,2.406980,5.640280,5.023250,5.713540
6,0.540225,2.199660,3.022970,0.756146,2.628050,1.071810,3.173090,3.141850,4.090630,3.178540,1.782930,2.349470,5.503220,4.844690,5.427560
7,0.414033,1.726240,2.664000,0.593834,1.952920,0.853383,2.599320,2.736400,3.618000,2.604320,1.370810,2.072960,5.080410,3.881450,4.270100
8,0.462600,1.548550,2.097960,0.679248,1.925250,0.826286,2.088780,2.202300,2.775360,2.104330,1.349600,1.627920,4.013880,3.164990,3.823640
9,0.806272,2.299680,2.221440,1.108370,2.773510,1.183380,2.525360,2.412140,2.777050,2.430680,1.710670,1.701450,3.442090,3.118510,3.852670
10,1.300350,3.642270,3.527080,1.458440,3.915800,1.566010,3.712980,3.284100,3.569000,3.159970,1.997800,1.987430,3.483500,3.037470,4.001780
11,1.593200,4.508330,5.029950,1.569790,4.414590,1.679280,4.325970,3.812610,4.223450,3.548340,2.157990,2.210400,3.597590,3.555970,4.403800
12,1.673850,4.838990,5.680070,1.592980,4.553640,1.744050,4.454310,3.977500,4.370480,3.811010,2.676830,2.532890,4.318730,5.109910,6.096080
13,1.785530,5.210780,5.821210,1.745060,5.125720,2.068920,4.957020,4.688220,5.394730,4.851080,3.878720,3.586930,6.039890,6.919420,7.435960
14,1.972500,5.957510,6.189110,2.098670,6.373620,2.715040,6.417680,6.201550,7.437770,6.875790,5.058220,5.280280,8.756330,7.794510,7.482080
15,2.269920,6.962570,7.122440,2.642310,8.212760,3.590540,8.444800,8.463840,10.034100,8.948110,5.774950,6.418710,10.417600,7.650400,6.970330
16,2.698190,8.440550,8.622930,3.349450,10.218360,4.365190,10.875800,10.619200,12.070400,10.067410,5.729120,6.733420,10.687600,6.928400,6.179960
17,3.231730,10.008830,10.713200,3.994690,11.815300,4.885270,12.583500,11.615000,12.671800,9.895220,5.239930,6.303590,9.945410,6.063640,5.598360
18,3.745870,11.441100,12.755600,4.414250,12.726500,4.907160,13.114300,11.410500,12.089300,9.023950,4.638810,5.510830,8.757510,5.385520,5.328680
19,4.273600,12.510700,14.651100,4.577180,12.769800,4.600170,12.564000,10.493100,10.967500,8.013990,4.052250,4.812940,7.669210,5.100350,5.410800
20,4.701290,13.127300,15.713000,4.451790,12.144200,4.157690,11.448300,9.344680,9.685840,6.985170,3.620920,4.251500,6.891040,5.108650,5.650200
21,4.999110,13.330500,16.099700,4.208890,11.220900,3.669040,10.296500,8.187560,8.434250,6.288840,3.373430,3.897170,6.522850,5.362150,5.803530
22,5.106130,13.131200,15.805500,3.886590,10.189810,3.271750,9.164660,7.259920,7.597360,5.778770,3.271980,3.819100,6.574710,5.602130,5.872390
23,5.031800,12.593100,15.083000,3.528350,9.090600,2.919790,8.159090,6.564010,6.957680,5.507090,3.304940,3.905620,6.901020,5.689480,5.796670
24,4.813680,11.871700,14.016700,3.172850,8.197100,2.680340,7.430580,6.037260,6.588150,5.503450,3.480740,4.117710,7.284210,5.726470,5.731930
25,4.597540,11.062400,12.825700,2.894150,7.550530,2.519770,6.929300,5.839240,6.626800,5.799530,3.731490,4.339120,7.550310,5.608170,5.745360
26,4.329470,10.365200,11.764500,2.654740,6.982910,2.453400,6.723760,5.944340,6.996330,6.198390,3.912580,4.580320,7.668240,5.511120,5.748110
27,4.087360,9.615470,10.869700,2.489060,6.660580,2.449860,6.750700,6.224340,7.454550,6.593160,4.008510,4.672160,7.591220,5.523060,5.815710
28,3.810480,8.927200,10.010830,2.356720,6.542300,2.547920,7.027950,6.674060,8.002150,6.837490,4.003360,4.621910,7.464490,5.598080,5.874930
29,3.587380,8.370810,9.348620,2.310980,6.569470,2.699790,7.438770,7.106160,8.303320,6.901500,3.914710,4.479090,7.297060,5.647610,5.859270
30,3.400900,7.877450,8.799950,2.318380,6.802900,2.850990,7.861040,7.478380,8.412370,6.816120,3.828730,4.350860,7.280650,5.740550,5.834190
31,3.211680,7.548270,8.509800,2.377830,7.162200,3.042860,8.325340,7.649610,8.426980,6.666760,3.757000,4.331100,7.375800,5.770900,5.770300
32,3.084180,7.337340,8.392130,2.492350,7.525150,3.119210,8.546420,7.632130,8.198270,6.451160,3.682080,4.287100,7.464190,5.689840,5.777020
33,2.957000,7.185480,8.380230,2.604090,7.938810,3.185480,8.618640,7.474960,7.959340,6.315340,3.721830,4.310500,7.573950,5.628990,5.740710
34,2.913540,7.219480,8.552780,2.758110,8.266020,3.191700,8.567260,7.286680,7.766750,6.286280,3.791830,4.438170,7.654540,5.615230,5.751870
35,2.908980,7.462470,8.972580,2.876000,8.458010,3.160090,8.471630,7.117650,7.723820,6.367400,3.868920,4.535860,7.625720,5.539710,5.788670
36,2.912090,7.716140,9.471050,2.941580,8.427630,3.086160,8.241350,6.956310,7.691130,6.430020,3.890550,4.574770,7.534680,5.532100,5.782760
37,2.940190,7.969930,9.886380,2.990200,8.367610,3.014500,8.007690,6.849410,7.744200,6.542640,3.917080,4.509060,7.382610,5.571780,5.777360
38,3.003880,8.326030,10.292400,2.982980,8.225450,2.950990,7.875620,6.882680,7.878730,6.673650,3.922790,4.491730,7.262450,5.580050,5.777620
39,3.081940,8.575440,10.604400,2.942640,8.042630,2.899450,7.782050,6.967960,8.039840,6.757450,3.882530,4.427510,7.286690,5.611780,5.762360
40,3.164380,8.807890,10.747900,2.904250,7.832400,2.864510,7.804530,7.116930,8.188940,6.760330,3.817490,4.374720,7.298040,5.575200,5.749990
41,3.258260,8.983540,10.814900,2.844270,7.700680,2.904300,7.914770,7.283240,8.283220,6.709090,3.775320,4.352670,7.377450,5.536790,5.779320
42,3.330080,9.065830,10.761700,2.757220,7.602730,2.922220,8.035920,7.424200,8.281590,6.607100,3.751630,4.356190,7.444060,5.554260,5.780240
43,3.361570,9.014820,10.572100,2.705040,7.557430,2.975180,8.174060,7.458970,8.168650,6.484300,3.718880,4.382600,7.467290,5.612810,5.781770
44,3.424660,8.960280,10.316700,2.703720,7.640740,3.048090,8.411490,7.498380,8.071660,6.448260,3.745590,4.368650,7.501490,5.615910,5.810370
45,3.473040,8.938000,10.192770,2.680720,7.733740,3.104530,8.538690,7.472480,8.008750,6.413970,3.757310,4.431890,7.485830,5.578340,5.813620
46,3.467690,8.788170,10.037630,2.667210,7.852180,3.137650,8.581670,7.368430,7.853070,6.344740,3.769960,4.444330,7.453130,5.561260,5.809780
47,3.429770,8.593890,9.781900,2.697630,8.000270,3.149930,8.493940,7.227770,7.754810,6.369430,3.790860,4.414320,7.421130,5.531950,5.756770
48,3.403660,8.467240,9.623850,2.756910,8.179600,3.159130,8.469990,7.133370,7.749680,6.449790,3.839060,4.424840,7.394890,5.528610,5.761110
49,3.398750,8.413700,9.623410,2.818030,8.315700,3.140680,8.384540,7.078530,7.811240,6.520480,3.859790,4.420580,7.422000,5.503470,5.775030
50,3.379930,8.339060,9.701170,2.867780,8.376840,3.092590,8.271320,7.040200,7.887040,6.579080,3.841210,4.407300,7.480310,5.478720,5.780510
51,3.313900,8.232770,9.749100,2.908250,8.366510,3.041980,8.112020,7.003850,7.953170,6.589080,3.830390,4.424040,7.481810,5.563350,5.782670
52,3.293330,8.248890,9.828460,2.948980,8.304740,2.989080,8.003970,7.027910,7.957200,6.599590,3.836400,4.446250,7.495890,5.557090,5.831990
53,3.276140,8.331690,9.986930,2.965320,8.200130,2.959540,7.975090,7.095690,8.073450,6.592130,3.834190,4.470490,7.526640,5.511090,5.853590
54,3.242340,8.351010,10.225400,2.944210,8.040240,2.919480,7.929720,7.108720,8.030520,6.515530,3.777670,4.492050,7.512180,5.545940,5.869530
55,3.218640,8.360390,10.306600,2.897230,7.933630,2.893090,7.920450,7.122520,7.913480,6.431540,3.758070,4.386670,7.414380,5.589200,5.856060
56,3.205550,8.398250,10.355700,2.866410,7.840040,2.926900,7.932540,7.153550,7.915700,6.431430,3.808000,4.348590,7.391170,5.580010,5.823480
57,3.246340,8.594100,10.422500,2.876580,7.768530,2.941970,8.077640,7.222780,7.937250,6.522010,3.878600,4.421910,7.393080,5.553840,5.849880
58,3.288270,8.766610,10.595900,2.815520,7.700040,2.970960,8.201300,7.264990,7.990620,6.550630,3.844300,4.457050,7.467730,5.522310,5.837420
59,3.284960,8.757730,10.588200,2.774320,7.619580,3.005650,8.204710,7.189830,7.905000,6.506380,3.805820,4.452190,7.504080,5.548840,5.840080
60,3.295480,8.788250,10.458900,2.748590,7.650920,3.014020,8.204250,7.145550,7.873610,6.547470,3.807970,4.437890,7.486390,5.535400,5.836780
61,3.314960,8.827080,10.348800,2.710830,7.724380,3.017950,8.202940,7.135390,7.933850,6.572010,3.834510,4.461240,7.530180,5.506450,5.842030
62,3.339060,8.808700,10.211600,2.702710,7.774510,3.047800,8.210250,7.116670,7.993680,6.604080,3.835240,4.479790,7.526070,5.524940,5.778380
63,3.378940,8.808950,10.069570,2.713630,7.864090,3.034530,8.220210,7.147960,8.037290,6.624390,3.803230,4.461060,7.479350,5.452490,5.788690
64,3.400030,8.772170,9.981470,2.733600,7.883060,3.019020,8.152200,7.148410,8.025590,6.560240,3.758450,4.449400,7.497920,5.382240,5.814870
65,3.406340,8.674300,9.929670,2.748420,7.943940,3.026520,8.072750,7.146830,8.010750,6.510770,3.772060,4.469530,7.478260,5.471190,5.818570
66,3.412860,8.613140,9.813010,2.762810,8.009350,3.003120,8.071610,7.148230,7.965410,6.514340,3.807540,4.463650,7.424270,5.525410,5.838840
67,3.426790,8.537410,9.782550,2.791330,7.988120,2.974550,8.065690,7.192790,7.967430,6.496140,3.779370,4.417540,7.411180,5.439890,5.879190
68,3.399890,8.477650,9.765550,2.793950,7.979640,2.969410,8.047530,7.196310,7.949830,6.471250,3.815560,4.327310,7.428990,5.416110,5.856000
69,3.404380,8.433010,9.799580,2.821840,7.973440,2.969060,8.099730,7.216450,7.910750,6.505430,3.819560,4.353210,7.468410,5.438730,5.830080
70,3.407100,8.421240,9.858080,2.835160,7.930070,2.974840,8.103310,7.213530,7.911910,6.492770,3.810200,4.388840,7.427870,5.407570,5.839030
71,3.371830,8.370450,9.966260,2.835720,7.834880,2.956160,8.115900,7.142560,7.854430,6.444410,3.761100,4.341470,7.416960,5.375750,5.795290
72,3.344130,8.299080,9.974100,2.791090,7.798160,2.962320,8.099550,7.084340,7.781600,6.425480,3.760010,4.340860,7.394820,5.445080,5.772180
73,3.304470,8.281320,9.980730,2.799340,7.828420,3.003340,8.157310,7.115740,7.845750,6.503250,3.804170,4.392130,7.341910,5.496680,5.758730
74,3.319970,8.372890,10.043980,2.803210,7.812920,3.031480,8.209650,7.149600,7.942280,6.541420,3.800480,4.437610,7.354840,5.516720,5.763240
75,3.300180,8.417440,10.140890,2.781610,7.775450,3.006680,8.199830,7.102520,7.835410,6.493760,3.755280,4.428640,7.354120,5.469530,5.780750
76,3.254970,8.402070,10.135130,2.762170,7.766050,3.002200,8.111700,7.051300,7.842150,6.434580,3.752030,4.370800,7.369310,5.482290,5.776330
77,3.254390,8.374010,10.076620,2.734690,7.806410,3.012930,8.071560,7.072760,7.872320,6.436130,3.762760,4.341820,7.418590,5.561090,5.813740
78,3.222040,8.382790,9.975250,2.724370,7.823110,3.000830,8.040000,7.080660,7.856240,6.502950,3.785550,4.347340,7.438600,5.600690,5.774710
79,3.263370,8.478590,9.925250,2.751180,7.868870,2.989670,8.070270,7.098320,7.911330,6.523770,3.798800,4.383320,7.482300,5.496430,5.806490
80,3.256610,8.481110,10.010560,2.732790,7.906580,2.987360,8.043460,7.121350,7.957350,6.490410,3.787710,4.449190,7.493770,5.394580,5.745930
81,3.239690,8.425400,9.916590,2.753960,7.871750,2.961110,8.011360,7.105310,7.879600,6.499590,3.802200,4.412820,7.433250,5.457270,5.698860
82,3.280280,8.510290,9.866440,2.782600,7.881090,2.954160,8.006020,7.116350,7.842670,6.507140,3.790090,4.408400,7.383860,5.446640,5.728280
83,3.250910,8.506640,9.886150,2.778940,7.830890,2.933020,7.969960,7.092230,7.810600,6.423830,3.747690,4.394940,7.366980,5.440480,5.786330
84,3.256350,8.437360,9.860210,2.769870,7.821480,2.942050,7.954650,7.046310,7.750090,6.394580,3.731560,4.361510,7.339870,5.506430,5.751170
85,3.279960,8.427740,9.819030,2.805260,7.861340,2.935950,8.032990,7.045270,7.841380,6.452590,3.749760,4.365960,7.365470,5.493420,5.782690
86,3.295620,8.419620,9.847490,2.799530,7.833370,2.949330,8.034090,7.093370,7.899470,6.473280,3.770880,4.402070,7.386350,5.452630,5.774200
87,3.301750,8.392230,9.889640,2.813190,7.839970,2.961580,8.048590,7.069560,7.890400,6.508570,3.818860,4.381860,7.406230,5.464070,5.751750
88,3.309880,8.458930,9.955660,2.830150,7.857410,2.987690,8.101780,7.122110,7.959610,6.538420,3.801550,4.400930,7.394880,5.484590,5.740260
89,3.318520,8.407250,10.067940,2.801490,7.765360,2.956710,8.054620,7.070610,7.906230,6.460090,3.734480,4.376880,7.400120,5.408310,5.748510
90,3.297130,8.377710,10.052910,2.791590,7.767180,2.965130,8.050220,7.035110,7.794980,6.421420,3.745290,4.326460,7.351980,5.423550,5.747310
91,3.283540,8.400750,10.046500,2.783880,7.804700,2.971510,8.076120,7.084150,7.872290,6.450100,3.761170,4.319830,7.340300,5.439930,5.746540
92,3.307770,8.443040,10.093170,2.776810,7.784370,2.995320,8.055990,7.116970,7.866690,6.458290,3.773800,4.349930,7.412800,5.444210,5.727430
93,3.313550,8.486730,10.158400,2.780030,7.776100,2.957630,8.088940,7.112990,7.865010,6.455950,3.747280,4.382300,7.399230,5.383590,5.789370
94,3.285660,8.440840,10.164460,2.756410,7.723870,2.964930,8.014460,7.088670,7.772650,6.359730,3.696100,4.343120,7.349110,5.366970,5.809590
95,3.259020,8.389250,10.040040,2.749430,7.717500,2.946070,7.963100,7.045650,7.725760,6.357940,3.716880,4.306730,7.331290,5.479930,5.833870
96,3.247660,8.391790,9.982550,2.738800,7.760830,2.929380,7.981510,7.056240,7.780850,6.397780,3.722480,4.355320,7.341240,5.466100,5.840530
97,3.240320,8.389910,9.929110,2.745980,7.772710,2.946810,7.940990,7.057310,7.809420,6.428770,3.721670,4.350840,7.427660,5.388900,5.857940
98,3.255080,8.448950,9.920250,2.753710,7.820040,2.941630,8.036470,7.075750,7.827910,6.433380,3.773430,4.359410,7.459430,5.325310,5.840270
99,3.288600,8.507040,9.945780,2.781580,7.826410,2.957470,8.005010,7.072430,7.849620,6.456690,3.788360,4.415730,7.475380,5.351340,5.839600
100,3.276360,8.478440,9.923960,2.747720,7.803720,2.962800,8.040980,7.059400,7.812530,6.478860,3.810980,4.430000,7.482960,5.383780,5.823200
101,3.277400,8.444960,9.853160,2.771050,7.844930,2.967480,8.053460,7.074080,7.860550,6.512670,3.832100,4.406370,7.476250,5.363640,5.788100
102,3.313980,8.513350,9.855870,2.804570,7.853620,2.987600,8.076700,7.124420,7.946580,6.532710,3.829550,4.436570,7.462670,5.257220,5.798700
103,3.313550,8.510580,9.934490,2.780270,7.837540,2.990660,8.044620,7.097870,7.899610,6.452350,3.760500,4.410840,7.401220,5.230600,5.823420
104,3.300470,8.448040,9.868690,2.779140,7.832010,2.982770,8.027610,7.044460,7.805780,6.379840,3.719710,4.294330,7.404490,5.386180,5.812230
105,3.284820,8.402060,9.832230,2.763180,7.856470,2.974360,8.040260,7.058370,7.808330,6.409270,3.729960,4.364560,7.396630,5.492890,5.834630
106,3.303720,8.422570,9.846220,2.763570,7.867720,3.001630,8.073060,7.090660,7.846880,6.448280,3.740040,4.395780,7.437410,5.432870,5.856220
107,3.318270,8.453110,9.928360,2.782880,7.858770,2.988250,8.097370,7.112180,7.880740,6.448670,3.749850,4.431500,7.420640,5.368810,5.795500
108,3.316920,8.442820,9.953420,2.768010,7.851530,2.986150,8.083290,7.133580,7.911140,6.490390,3.787630,4.400630,7.393470,5.333540,5.758510
109,3.332760,8.469570,9.989930,2.781440,7.868790,3.009400,8.143230,7.149830,7.957800,6.546580,3.824870,4.390600,7.389770,5.315940,5.732100
110,3.334010,8.504700,10.022750,2.782360,7.858780,2.988600,8.142610,7.168820,7.967750,6.566640,3.857100,4.396670,7.374520,5.255290,5.729920
111,3.334560,8.492070,10.066730,2.764110,7.805200,2.963690,8.089020,7.138820,7.949600,6.537160,3.825310,4.412690,7.351810,5.266800,5.721630
112,3.293030,8.434640,10.021880,2.754300,7.778890,2.954330,8.013500,7.105350,7.856200,6.478340,3.780250,4.371840,7.326740,5.368530,5.788270
113,3.287130,8.437080,9.989150,2.757970,7.781190,2.938310,7.966040,7.040960,7.812340,6.410490,3.723990,4.363210,7.338260,5.419720,5.887010
114,3.292900,8.446200,9.950820,2.774550,7.838690,2.946680,7.960500,7.040850,7.827950,6.415390,3.744670,4.359950,7.428900,5.466540,5.915070
115,3.293960,8.478070,9.956130,2.769730,7.861760,2.970530,8.041600,7.091800,7.887430,6.457840,3.780810,4.380010,7.428280,5.496200,5.909070
116,3.309890,8.501310,9.997820,2.779030,7.886980,2.975150,8.081880,7.137010,7.915510,6.524270,3.788490,4.387670,7.464500,5.409870,5.892210
117,3.287990,8.467910,9.983750,2.778420,7.849770,2.970120,8.070300,7.112470,7.925650,6.534200,3.805040,4.440140,7.471040,5.365680,5.814990
118,3.297950,8.467570,9.952220,2.784690,7.872670,2.975090,8.076280,7.136110,7.915720,6.496580,3.815000,4.379140,7.426180,5.333770,5.815090
119,3.272040,8.453310,9.955290,2.769110,7.848570,2.983800,8.128980,7.141090,7.889110,6.523210,3.852740,4.396640,7.448370,5.329810,5.789160